num,entry_t,entry,sl,exit,R,win,yr
1,1716898500,2354.49,2339.18,2339.18,-1.0,0,2024
2,1717065900,2340.64,2321.02,2321.02,-1.0,0,2024
3,1717423200,2339.43,2313.02,2366.53,1.03,1,2024
4,1717686000,2370.3,2352.13,2352.13,-1.0,0,2024
5,1718020800,2305.87,2284.81,2323.06,0.82,1,2024
6,1718352000,2319.81,2308.12,2326.99,0.61,1,2024
7,1718671500,2324.09,2318.55,2318.55,-1.0,0,2024
8,1718713800,2322.16,2305.41,2339.89,1.06,1,2024
9,1718890200,2345.17,2330.24,2357.88,0.85,1,2024
10,1718955900,2363.03,2354.2,2354.2,-1.0,0,2024
11,1719306900,2332.23,2321.88,2321.88,-1.0,0,2024
12,1719489600,2319.41,2292.01,2354.89,1.29,1,2024
13,1720055700,2361.55,2355.85,2355.85,-1.0,0,2024
14,1720102500,2360.4,2349.35,2349.35,-1.0,0,2024
15,1720183500,2372.12,2346.75,2412.75,1.6,1,2024
16,1720792800,2409.04,2389.77,2420.76,0.61,1,2024
17,1721095200,2426.33,2419.29,2438.0,1.66,1,2024
18,1721137500,2442.72,2427.63,2469.16,1.75,1,2024
19,1721697300,2403.26,2394.13,2394.13,-1.0,0,2024
20,1721723400,2403.56,2386.95,2419.08,0.93,1,2024
21,1721958300,2373.59,2354.73,2394.44,1.11,1,2024
22,1722345300,2394.46,2367.1,2416.0,0.79,1,2024
23,1722450600,2432.27,2413.85,2445.8,0.73,1,2024
24,1722564900,2451.47,2433.14,2460.54,0.49,1,2024
25,1722830400,2455.78,2410.53,2410.53,-1.0,0,2024
26,1723031100,2401.06,2377.52,2424.27,0.99,1,2024
27,1723199400,2430.07,2415.63,2441.14,0.77,1,2024
28,1723469400,2451.99,2438.57,2469.72,1.32,1,2024
29,1723552200,2470.97,2457.18,2457.18,-1.0,0,2024
30,1723618800,2469.71,2453.84,2453.84,-1.0,0,2024
31,1723716000,2459.81,2446.97,2446.97,-1.0,0,2024
32,1723794300,2462,2449.82,2503.16,3.38,1,2024
33,1724077800,2502.61,2483.82,2521.17,0.99,1,2024
34,1724264100,2518.69,2491.33,2491.33,-1.0,0,2024
35,1724400900,2496.58,2485.53,2502.91,0.57,1,2024
36,1724779800,2519.72,2501.48,2501.48,-1.0,0,2024
37,1724890500,2514.11,2501.62,2523.2,0.73,1,2024
38,1724998500,2522.41,2511.2,2511.2,-1.0,0,2024
39,1725351300,2504.59,2491.65,2491.65,-1.0,0,2024
40,1725447600,2489.95,2469.81,2513.34,1.16,1,2024
41,1725600600,2520.19,2512.39,2512.39,-1.0,0,2024
42,1725625800,2524.82,2502.55,2502.55,-1.0,0,2024
43,1725963300,2507.82,2491.66,2520.35,0.78,1,2024
44,1726119000,2518.47,2510.11,2548.65,3.61,1,2024
45,1726189200,2562.19,2555.94,2566.91,0.76,1,2024
46,1726231500,2575.88,2562.0,2562.0,-1.0,0,2024
47,1726655400,2576.3,2564.62,2567.95,-0.71,0,2024
48,1726731900,2584.33,2548.51,2619.05,0.97,1,2024
49,1727058600,2623.07,2615.12,2626.61,0.45,1,2024
50,1727096400,2629.17,2612.18,2656.39,1.6,1,2024
51,1727232300,2670.02,2653.97,2653.97,-1.0,0,2024
52,1727336700,2664.66,2654.49,2666.81,0.21,1,2024
53,1727763300,2644.57,2624.67,2657.01,0.63,1,2024
54,1727973000,2659.04,2635.59,2635.59,-1.0,0,2024
55,1728054000,2666.67,2629.83,2629.83,-1.0,0,2024
56,1728384300,2646.13,2626.82,2626.82,-1.0,0,2024
57,1728563400,2621.21,2600.32,2642.94,1.04,1,2024
58,1728653400,2650.02,2613.15,2676.24,0.71,1,2024
59,1729173600,2689.96,2671.31,2708.43,0.99,1,2024
60,1729260900,2717.11,2700.26,2730.24,0.78,1,2024
61,1729510200,2737.69,2724.2,2724.2,-1.0,0,2024
62,1729608300,2741.83,2712.67,2712.67,-1.0,0,2024
63,1729860300,2731.44,2715.47,2739.99,0.54,1,2024
64,1730126700,2744.25,2726.29,2776.54,1.8,1,2024
65,1730267100,2783.16,2769.64,2769.64,-1.0,0,2024
66,1730464200,2755.99,2743.63,2743.63,-1.0,0,2024
67,1730790000,2740.6,2724.0,2724.0,-1.0,0,2024
68,1730982600,2670.31,2651.11,2690.31,1.04,1,2024
69,1731009600,2705.04,2638.0,2638.0,-1.0,0,2024
70,1731465900,2612.16,2593.42,2593.42,-1.0,0,2024
71,1731600900,2575.67,2547.64,2620.95,1.62,1,2024
72,1732007700,2630.56,2533.45,2719.69,0.92,1,2024
73,1732673700,2637.08,2617.68,2648.65,0.6,1,2024
74,1732842900,2644.9,2632.8,2658.11,1.09,1,2024
75,1733206500,2649.04,2632.59,2632.59,-1.0,0,2024
76,1733319900,2648.35,2630.59,2630.59,-1.0,0,2024
77,1733458500,2642.02,2611.53,2666.31,0.8,1,2024
78,1733795100,2667.31,2655.34,2698.33,2.59,1,2024
79,1733911200,2698.34,2673.07,2716.3,0.71,1,2024
80,1733977800,2713.01,2694.42,2694.42,-1.0,0,2024
81,1734701400,2608.85,2588.2,2623.14,0.69,1,2024
82,1735173000,2621.05,2609.18,2633.02,1.01,1,2024
83,1735562700,2621.39,2607.88,2607.88,-1.0,0,2024
84,1735631100,2613.72,2601.55,2622.52,0.72,1,2024
85,1735779600,2629.45,2594.24,2661.36,0.91,1,2025
86,1736162100,2644.74,2623.72,2623.72,-1.0,0,2025
87,1736213400,2638.6,2632.25,2655.44,2.65,1,2025
88,1736341200,2655.98,2644.65,2662.32,0.56,1,2025
89,1736405100,2666.59,2654.39,2678.39,0.97,1,2025
90,1736516700,2682.7,2662.09,2662.09,-1.0,0,2025
91,1736919900,2679.29,2658.63,2695.4,0.78,1,2025
92,1737013500,2698.26,2688.84,2712.58,1.52,1,2025
93,1737048600,2723.53,2652.97,2768.95,0.64,1,2025
94,1737684900,2768.5,2733.66,2733.66,-1.0,0,2025
95,1738068300,2745.58,2733.61,2762.55,1.42,1,2025
96,1738139400,2763.05,2756.42,2756.42,-1.0,0,2025
97,1738219500,2765.45,2743.66,2791.84,1.21,1,2025
98,1738308600,2797.8,2791.28,2791.28,-1.0,0,2025
99,1738325700,2805.22,2787.2,2787.2,-1.0,0,2025
100,1738587600,2809.5,2791.26,2813.23,0.2,1,2025
101,1738632600,2822.66,2810.46,2810.46,-1.0,0,2025
102,1738674000,2823.8,2805.62,2841.5,0.97,1,2025
103,1738715400,2847.08,2803.89,2897.63,1.17,1,2025
104,1739230200,2921.23,2894.69,2894.69,-1.0,0,2025
105,1739368800,2893.57,2861.44,2926.98,1.04,1,2025
106,1739520900,2936.64,2910.35,2910.35,-1.0,0,2025
107,1739845800,2903.35,2890.75,2932.29,2.3,1,2025
108,1739929500,2938.39,2874.38,2950.06,0.18,1,2025
109,1740956400,2872.78,2830.68,2911.58,0.92,1,2025
110,1741154400,2919.39,2900.15,2900.15,-1.0,0,2025
111,1741186800,2916.99,2891.59,2891.59,-1.0,0,2025
112,1741272300,2915.24,2888.45,2888.45,-1.0,0,2025
113,1741680000,2904.07,2891.66,2914.8,0.87,1,2025
114,1741769100,2922.01,2907.73,2907.73,-1.0,0,2025
115,1741791600,2927.89,2877.73,2985.24,1.14,1,2025
116,1741944600,2998.99,2979.09,2979.09,-1.0,0,2025
117,1742202900,2992.85,2981.21,3032.42,3.4,1,2025
118,1742355900,3036.2,3026.3,3026.3,-1.0,0,2025
119,1742409000,3047.78,3020.68,3020.68,-1.0,0,2025
120,1742800500,3025.19,2996.26,3048.23,0.8,1,2025
121,1743085800,3055.16,2996.82,3118.06,1.08,1,2025
122,1743469200,3132.73,3097.58,3097.58,-1.0,0,2025
123,1743762600,3111.29,3075.43,3075.43,-1.0,0,2025
124,1744163100,3008.58,2968.36,3037.93,0.73,1,2025
125,1744197300,3060.34,2952.34,3153.24,0.86,1,2025
126,1744330500,3194.67,3165.06,3210.97,0.55,1,2025
127,1744594200,3240.71,3206.89,3206.89,-1.0,0,2025
128,1744679700,3223.2,3208.33,3299.36,5.12,1,2025
129,1744817400,3321.86,3285.38,3285.38,-1.0,0,2025
130,1745186400,3338.24,3278.45,3406.51,1.14,1,2025
131,1745285400,3450.38,3401.68,3472.28,0.45,1,2025
132,1745453700,3334.7,3253.51,3253.51,-1.0,0,2025
133,1746156600,3256.86,3198.6,3310.73,0.92,1,2025
134,1746472500,3336.22,3199.01,3229.69,-0.78,0,2025
135,1747112400,3260.31,3211.93,3211.93,-1.0,0,2025
136,1747314000,3195.34,3117.71,3275.63,1.03,1,2025
137,1747806300,3316.35,3270.96,3360.33,0.97,1,2025
138,1748417400,3317.32,3289.61,3289.61,-1.0,0,2025
139,1748513700,3298.3,3241.28,3377.57,1.39,1,2025
140,1749000600,3367.14,3331.09,3370.57,0.1,1,2025
141,1749482100,3330.58,3291.0,3369.14,0.97,1,2025
142,1749723300,3379.34,3335.83,3423.15,1.01,1,2025
143,1749819600,3440.73,3408.72,3408.72,-1.0,0,2025
144,1750220100,3394.81,3368.14,3368.14,-1.0,0,2025
145,1750426200,3364.15,3337.75,3371.61,0.28,1,2025
146,1750685400,3382.03,3352.99,3352.99,-1.0,0,2025
147,1750892400,3337.06,3309.64,3309.64,-1.0,0,2025
148,1751262300,3288.99,3242.79,3346.32,1.24,1,2025
149,1751454000,3345.08,3326.49,3355.25,0.55,1,2025
150,1751522400,3358.64,3339.9,3339.9,-1.0,0,2025
151,1751907600,3331.31,3293.92,3293.92,-1.0,0,2025
152,1752069600,3306.03,3280.08,3331.87,1.0,1,2025
153,1752228900,3345.72,3328.1,3349.99,0.24,1,2025
154,1752444900,3370.71,3351.95,3351.95,-1.0,0,2025
155,1752678000,3348.55,3316.74,3316.74,-1.0,0,2025
156,1752792300,3343.35,3307.75,3395.07,1.45,1,2025
157,1753186500,3400.36,3382.09,3428.34,1.53,1,2025
158,1753262100,3431.65,3414.67,3414.67,-1.0,0,2025
159,1753776000,3327.2,3298.77,3298.77,-1.0,0,2025
160,1753949700,3310.77,3291.75,3291.75,-1.0,0,2025
161,1754051400,3339.13,3265.02,3397.21,0.78,1,2025
162,1755011700,3354.2,3328.58,3328.58,-1.0,0,2025
163,1755476100,3340.34,3322.24,3346.29,0.33,1,2025
164,1755687600,3329.05,3310.72,3339.67,0.58,1,2025
165,1755727200,3350.95,3310.02,3369.19,0.45,1,2025
166,1756167300,3377.24,3349.53,3417.62,1.46,1,2025
167,1756472400,3418.73,3403.14,3441.95,1.49,1,2025
168,1756691100,3457.1,3435.27,3473.81,0.77,1,2025
169,1756774800,3488.52,3465.07,3532.89,1.89,1,2025
170,1756858500,3537.32,3524.84,3565.27,2.24,1,2025
171,1757029500,3552.7,3538.79,3592.34,2.85,1,2025
172,1757314800,3604.6,3577.54,3633.41,1.06,1,2025
173,1757380500,3644.54,3626.66,3643.46,-0.06,0,2025
174,1757593800,3637.05,3611.01,3678.82,1.6,1,2025
175,1758005100,3693.38,3673.02,3673.02,-1.0,0,2025
176,1758254400,3659.09,3630.55,3686.45,0.96,1,2025
177,1758521700,3706.24,3683.98,3744.32,1.71,1,2025
178,1758589200,3754.66,3736.71,3736.71,-1.0,0,2025
179,1758616200,3770.13,3733.38,3733.38,-1.0,0,2025
180,1758787200,3757.43,3727.08,3727.08,-1.0,0,2025
181,1758891600,3764.45,3732.35,3823.61,1.84,1,2025
182,1759190400,3838.51,3803.4,3803.4,-1.0,0,2025
183,1759241700,3843.94,3787.39,3934.33,1.6,1,2025
184,1759761000,3957.78,3919.11,3987.62,0.77,1,2025
185,1759889700,4003.68,3982.12,4031.56,1.29,1,2025
186,1760013900,4053.35,4019.61,4019.61,-1.0,0,2025
187,1760108400,4009.15,3941.74,4100.73,1.36,1,2025
188,1760398200,4128.46,4086.94,4155.04,0.64,1,2025
189,1760486400,4168.57,4082.6,4339.97,1.99,1,2025
190,1760960700,4279.08,4215.74,4341.54,0.99,1,2025
191,1760985000,4359.37,4285.45,4285.45,-1.0,0,2025
192,1761199200,4129.93,4000.02,4000.02,-1.0,0,2025
193,1761696000,3962,3910.38,4012.11,0.97,1,2025
194,1761814800,4004.91,3908.92,3982.68,-0.23,0,2025
195,1762533000,4020.79,3923.72,4128.25,1.11,1,2025
196,1762903800,4143.43,4092.54,4191.28,0.94,1,2025
197,1763006400,4217.6,4176.56,4176.56,-1.0,0,2025
198,1763472600,4063.47,3992.26,4143.85,1.13,1,2025
199,1764288900,4170.55,4140.36,4215.75,1.5,1,2025
200,1764551700,4238.71,4202.38,4202.38,-1.0,0,2025
201,1764684000,4223.27,4176.75,4176.75,-1.0,0,2025
202,1764727200,4224.06,4157.42,4206.01,-0.27,0,2025
203,1765393200,4212.25,4185.33,4185.33,-1.0,0,2025
204,1765396800,4235.38,4166.49,4331.54,1.4,1,2025
205,1765765800,4328.99,4292.05,4292.05,-1.0,0,2025
206,1765891800,4304.17,4267.65,4319.59,0.42,1,2025
207,1765979100,4342.1,4303.01,4431.28,2.28,1,2025
208,1766444400,4454.93,4408.0,4506.04,1.09,1,2025
209,1766708100,4507.01,4442.32,4442.32,-1.0,0,2025
210,1767097800,4399.84,4344.88,4344.88,-1.0,0,2025
211,1767311100,4348.35,4303.83,4389.83,0.93,1,2026
212,1767567600,4370.03,4304.33,4429.66,0.91,1,2026
213,1767624300,4436.61,4392.36,4480.93,1.0,1,2026
214,1767741300,4498.46,4438.52,4438.52,-1.0,0,2026
215,1767884400,4448.1,4404.2,4499.12,1.16,1,2026
216,1768172400,4529.95,4402.66,4660.38,1.02,1,2026
217,1768882500,4686.03,4657.09,4721.2,1.22,1,2026
218,1768917600,4740.77,4644.52,4853.3,1.17,1,2026
219,1769094900,4854.01,4766.72,4945.25,1.05,1,2026
220,1769183100,4960.48,4893.42,5070.3,1.64,1,2026
221,1769544000,5141.95,4983.66,5261.66,0.76,1,2026
222,1769630400,5326.55,5229.38,5452.42,1.3,1,2026
223,1770077700,4820.62,4626.32,5052.69,1.19,1,2026
224,1770389100,4948.32,4813.2,5046.12,0.72,1,2026
225,1770732900,5070.08,4979.17,4979.17,-1.0,0,2026
226,1770996600,5006.88,4864.92,4864.92,-1.0,0,2026
227,1771383600,4912.48,4848.55,4992.28,1.25,1,2026
228,1771482600,5009.26,4955.54,5017.23,0.15,1,2026
229,1771605000,5063.18,4984.58,5154.38,1.16,1,2026
230,1771857000,5190.44,5117.46,5117.46,-1.0,0,2026
231,1772138700,5196.53,5126.01,5345.13,2.11,1,2026
232,1772434800,5406.13,5334.71,5334.71,-1.0,0,2026
233,1772678700,5192.08,5123.61,5123.61,-1.0,0,2026
234,1772808300,5130.49,5055.56,5055.56,-1.0,0,2026
235,1773083700,5140.02,5053.79,5221.99,0.95,1,2026
236,1773300600,5178.63,5120.79,5120.79,-1.0,0,2026
237,1773721800,5039.47,4990.24,4990.24,-1.0,0,2026
238,1773976500,4733.61,4582.92,4582.92,-1.0,0,2026
239,1774275300,4486.58,4080.65,4501.63,0.04,1,2026
240,1774919700,4581.6,4476.48,4661.66,0.76,1,2026
241,1775025900,4730.46,4654.72,4654.72,-1.0,0,2026
242,1775466000,4701.22,4590.47,4803.24,0.92,1,2026
243,1775741400,4775.75,4691.57,4691.57,-1.0,0,2026
244,1776100500,4742.99,4695.63,4770.79,0.59,1,2026
245,1776176100,4809.34,4638.59,4714.11,-0.56,0,2026
246,1776834900,4766.18,4661.11,4661.11,-1.0,0,2026
247,1777029300,4715.24,4652.6,4652.6,-1.0,0,2026
248,1777531500,4589.59,4511.73,4511.73,-1.0,0,2026
249,1777983300,4573.72,4530.43,4671.06,2.25,1,2026
250,1778116500,4704.23,4682.19,4732.66,1.29,1,2026
251,1778247000,4738.07,4675.85,4675.85,-1.0,0,2026
252,1778504400,4720.96,4644.58,4644.58,-1.0,0,2026
253,1778743800,4708.94,4664.1,4664.1,-1.0,0,2026
254,1779108300,4571.31,4476.32,4476.32,-1.0,0,2026
255,1779282000,4505.09,4457.12,4536.58,0.66,1,2026
256,1779385500,4551.59,4484.71,4567.4,0.24,1,2026
