num,entry_t,entry,sl,exit,R,win,yr
1,1716898500,2354.49,2340.08,2340.08,-1.0,0,2024
2,1717065900,2340.64,2322.27,2342.11,0.08,1,2024
3,1717423200,2339.43,2314.36,2366.53,1.08,1,2024
4,1717686000,2370.3,2353.08,2372.66,0.14,1,2024
5,1718020800,2305.87,2286.34,2323.06,0.88,1,2024
6,1718352000,2319.81,2309.1,2326.99,0.67,1,2024
7,1718713800,2322.16,2306.32,2339.9,1.12,1,2024
8,1718890200,2345.17,2331.32,2357.88,0.92,1,2024
9,1719489600,2319.41,2293.16,2354.9,1.35,1,2024
10,1720055700,2361.55,2356.33,2356.33,-1.0,0,2024
11,1720102500,2360.4,2350.18,2350.18,-1.0,0,2024
12,1720183500,2372.12,2348.33,2412.75,1.71,1,2024
13,1720792800,2409.04,2391.03,2420.76,0.65,1,2024
14,1721095200,2426.33,2419.85,2438.0,1.8,1,2024
15,1721178000,2472.6,2465.9,2469.35,-0.48,0,2024
16,1721697300,2403.26,2394.63,2394.63,-1.0,0,2024
17,1721733300,2409.85,2383.32,2383.32,-1.0,0,2024
18,1722002400,2388.99,2352.71,2416.09,0.75,1,2024
19,1722450600,2432.27,2415.1,2445.8,0.79,1,2024
20,1722567600,2458.69,2434.27,2434.27,-1.0,0,2024
21,1722830400,2455.78,2412.92,2412.92,-1.0,0,2024
22,1723031100,2401.06,2378.7,2424.27,1.04,1,2024
23,1723213800,2430.61,2416.52,2441.08,0.74,1,2024
24,1723469400,2451.99,2439.45,2469.72,1.41,1,2024
25,1723556700,2472.94,2458.15,2458.15,-1.0,0,2024
26,1723624200,2477.66,2454.89,2454.89,-1.0,0,2024
27,1723716000,2459.81,2447.91,2447.91,-1.0,0,2024
28,1723803300,2466.1,2450.55,2503.11,2.38,1,2024
29,1724077800,2502.61,2485.07,2521.17,1.06,1,2024
30,1724400900,2496.58,2486.39,2502.92,0.62,1,2024
31,1724782500,2524.05,2502.96,2502.96,-1.0,0,2024
32,1724890500,2514.11,2502.56,2523.19,0.79,1,2024
33,1724998500,2522.41,2511.94,2511.94,-1.0,0,2024
34,1725458400,2491.62,2471.53,2513.58,1.09,1,2024
35,1725600600,2520.19,2512.82,2512.82,-1.0,0,2024
36,1725625800,2524.82,2503.69,2503.69,-1.0,0,2024
37,1725974100,2514.82,2503.91,2503.91,-1.0,0,2024
38,1725982200,2516.18,2499.02,2548.48,1.88,1,2024
39,1726189200,2562.19,2556.57,2566.91,0.84,1,2024
40,1726231500,2575.88,2562.94,2584.71,0.68,1,2024
41,1726538400,2584.99,2578.28,2578.28,-1.0,0,2024
42,1726731900,2584.33,2550.51,2609.73,0.75,1,2024
43,1726846200,2622.25,2602.24,2656.33,1.7,1,2024
44,1727232300,2670.02,2655.03,2655.03,-1.0,0,2024
45,1727338500,2668.93,2649.24,2649.24,-1.0,0,2024
46,1727763300,2644.57,2626.13,2657.02,0.68,1,2024
47,1728008100,2661.25,2654.18,2654.18,-1.0,0,2024
48,1728563400,2621.21,2601.49,2642.94,1.1,1,2024
49,1728658800,2657.11,2601.41,2708.41,0.92,1,2024
50,1729284300,2722.2,2704.5,2733.35,0.63,1,2024
51,1729609200,2743.82,2729.29,2749.65,0.4,1,2024
52,1729860300,2731.44,2716.68,2739.99,0.58,1,2024
53,1730126700,2744.25,2727.55,2776.55,1.93,1,2024
54,1730267100,2783.16,2770.69,2770.69,-1.0,0,2024
55,1730466000,2761.09,2744.51,2744.51,-1.0,0,2024
56,1730797200,2744.62,2731.53,2731.53,-1.0,0,2024
57,1730982600,2670.31,2652.43,2690.32,1.12,1,2024
58,1731009600,2705.04,2642.1,2642.1,-1.0,0,2024
59,1731600900,2575.67,2549.58,2620.94,1.74,1,2024
60,1732007700,2630.56,2535.95,2719.68,0.94,1,2024
61,1732673700,2637.08,2619.16,2648.66,0.65,1,2024
62,1732842900,2644.9,2633.64,2658.11,1.17,1,2024
63,1733206500,2649.04,2633.6,2633.6,-1.0,0,2024
64,1733319900,2648.35,2631.87,2631.87,-1.0,0,2024
65,1733698800,2642.71,2630.88,2630.88,-1.0,0,2024
66,1733729400,2648.51,2623.83,2666.33,0.72,1,2024
67,1733826600,2673.76,2660.86,2698.27,1.9,1,2024
68,1733929200,2712.57,2685.81,2685.81,-1.0,0,2024
69,1734701400,2608.85,2589.41,2623.14,0.73,1,2024
70,1735173000,2621.05,2609.87,2633.01,1.07,1,2024
71,1735562700,2621.39,2608.86,2608.86,-1.0,0,2024
72,1735659000,2623.63,2595.78,2657.47,1.22,1,2024
73,1736162100,2644.74,2624.84,2624.84,-1.0,0,2025
74,1736213400,2638.6,2632.75,2655.42,2.88,1,2025
75,1736341200,2655.98,2645.57,2662.32,0.61,1,2025
76,1736405100,2666.59,2655.15,2667.02,0.04,1,2025
77,1736516700,2682.7,2663.52,2663.52,-1.0,0,2025
78,1736919900,2679.29,2659.57,2695.4,0.82,1,2025
79,1737015300,2701.33,2675.93,2724.93,0.93,1,2025
80,1737519300,2751.81,2739.58,2739.58,-1.0,0,2025
81,1737650700,2753.93,2735.33,2771.67,0.95,1,2025
82,1737724500,2781.88,2769.57,2769.57,-1.0,0,2025
83,1738073700,2753.99,2734.46,2776.66,1.16,1,2025
84,1738244700,2785.68,2730.04,2841.54,1.0,1,2025
85,1738715400,2847.08,2806.55,2897.62,1.25,1,2025
86,1739378700,2902.56,2863.88,2942.32,1.03,1,2025
87,1740030300,2946.8,2931.91,2931.91,-1.0,0,2025
88,1740100500,2945.47,2923.51,2923.51,-1.0,0,2025
89,1740365100,2940.79,2920.73,2950.06,0.46,1,2025
90,1740999600,2874.68,2858.38,2887.02,0.76,1,2025
91,1741072500,2899.34,2831.84,2913.58,0.21,1,2025
92,1741699800,2919.6,2879.57,2985.37,1.64,1,2025
93,1741944600,2998.99,2980.43,2980.43,-1.0,0,2025
94,1742260500,3004.22,2984.27,3032.23,1.4,1,2025
95,1742410800,3047.27,3021.94,3021.94,-1.0,0,2025
96,1742800500,3025.19,2998.54,3048.24,0.86,1,2025
97,1743085800,3055.16,2998.65,3118.06,1.11,1,2025
98,1743469200,3132.73,3099.32,3141.95,0.28,1,2025
99,1743762600,3111.29,3077.77,3077.77,-1.0,0,2025
100,1744163100,3008.58,2971.38,3037.93,0.79,1,2025
101,1744197300,3060.34,2955.72,3153.24,0.89,1,2025
102,1744330500,3194.67,3167.56,3210.96,0.6,1,2025
103,1744686000,3225.13,3200.91,3299.15,3.06,1,2025
104,1744817400,3321.86,3288.12,3348.24,0.78,1,2025
105,1745195400,3369.85,3283.31,3478.98,1.26,1,2025
106,1745456400,3348.14,3267.47,3267.47,-1.0,0,2025
107,1745857800,3338.1,3267.17,3267.17,-1.0,0,2025
108,1746156600,3256.86,3201.06,3310.71,0.96,1,2025
109,1746472500,3336.22,3201.14,3229.64,-0.79,0,2025
110,1747112400,3260.31,3214.79,3214.79,-1.0,0,2025
111,1747314000,3195.34,3119.89,3275.62,1.06,1,2025
112,1747806300,3316.35,3274.38,3360.33,1.05,1,2025
113,1748513700,3298.3,3244.62,3377.59,1.48,1,2025
114,1749000600,3367.14,3332.76,3370.58,0.1,1,2025
115,1749482100,3330.58,3292.78,3369.14,1.02,1,2025
116,1749735000,3398.31,3292.12,3364.97,-0.31,0,2025
117,1750426200,3364.15,3339.58,3371.62,0.3,1,2025
118,1750892400,3337.06,3311.37,3311.37,-1.0,0,2025
119,1751262300,3288.99,3245.64,3346.3,1.32,1,2025
120,1751454000,3345.08,3327.35,3355.24,0.57,1,2025
121,1751907600,3331.31,3295.98,3295.98,-1.0,0,2025
122,1752099300,3320.19,3281.73,3349.61,0.77,1,2025
123,1752444900,3370.71,3353.08,3353.08,-1.0,0,2025
124,1752792300,3343.35,3309.29,3395.05,1.52,1,2025
125,1753186500,3400.36,3383.11,3428.36,1.62,1,2025
126,1753801200,3329.91,3311.52,3311.52,-1.0,0,2025
127,1753949700,3310.77,3293.37,3293.37,-1.0,0,2025
128,1754051400,3339.13,3267.36,3397.19,0.81,1,2025
129,1755011700,3354.2,3330.36,3330.36,-1.0,0,2025
130,1755476100,3340.34,3323.25,3346.29,0.35,1,2025
131,1755687600,3329.05,3311.98,3339.68,0.62,1,2025
132,1755727200,3350.95,3311.14,3369.18,0.46,1,2025
133,1756167300,3377.24,3351.0,3417.62,1.54,1,2025
134,1756472400,3418.73,3403.96,3441.93,1.57,1,2025
135,1756691100,3457.1,3436.69,3473.8,0.82,1,2025
136,1756774800,3488.52,3466.68,3532.88,2.03,1,2025
137,1756858500,3537.32,3526.05,3565.26,2.48,1,2025
138,1757335500,3624.04,3572.0,3681.8,1.11,1,2025
139,1758005100,3693.38,3674.16,3674.16,-1.0,0,2025
140,1758254400,3659.09,3631.85,3686.47,1.0,1,2025
141,1758521700,3706.24,3685.2,3744.32,1.81,1,2025
142,1758589200,3754.66,3737.93,3737.93,-1.0,0,2025
143,1758699000,3777.43,3750.2,3750.2,-1.0,0,2025
144,1758787200,3757.43,3729.16,3729.16,-1.0,0,2025
145,1758891600,3764.45,3734.03,3823.62,1.95,1,2025
146,1759190400,3838.51,3805.76,3862.16,0.72,1,2025
147,1759241700,3843.94,3791.97,3879.12,0.68,1,2025
148,1759496400,3877.26,3854.21,3935.05,2.51,1,2025
149,1759761000,3957.78,3921.73,3987.63,0.83,1,2025
150,1759889700,4003.68,3983.85,4031.56,1.41,1,2025
151,1760013900,4053.35,4021.94,4021.94,-1.0,0,2025
152,1760108400,4009.15,3945.67,4100.75,1.44,1,2025
153,1760398200,4128.46,4090.1,4155.04,0.69,1,2025
154,1760486400,4168.57,4088.92,4339.98,2.15,1,2025
155,1760962500,4293.83,4217.63,4356.09,0.82,1,2025
156,1761199200,4129.93,4009.08,4009.08,-1.0,0,2025
157,1761696000,3962,3914.6,4012.1,1.06,1,2025
158,1761814800,4004.91,3914.05,3982.65,-0.24,0,2025
159,1762736400,4027.02,3965.32,4075.15,0.78,1,2025
160,1762798500,4114.15,4073.5,4191.51,1.9,1,2025
161,1763006400,4217.6,4179.15,4179.15,-1.0,0,2025
162,1763472600,4063.47,3996.61,4100.78,0.56,1,2025
163,1763643600,4090.04,4037.7,4037.7,-1.0,0,2025
164,1763988300,4080.18,4039.1,4143.85,1.55,1,2025
165,1764288900,4170.55,4142.1,4215.73,1.59,1,2025
166,1764551700,4238.71,4204.92,4204.92,-1.0,0,2025
167,1764767700,4220.37,4194.09,4194.09,-1.0,0,2025
168,1764864000,4210.37,4182.97,4227.58,0.63,1,2025
169,1765296000,4218.48,4169.1,4271.91,1.08,1,2025
170,1765522800,4285.78,4265.75,4331.81,2.3,1,2025
171,1765765800,4328.99,4294.67,4294.67,-1.0,0,2025
172,1765894500,4325.75,4271.08,4431.48,1.93,1,2025
173,1766444400,4454.93,4411.29,4488.71,0.77,1,2025
174,1766538900,4521.43,4429.63,4429.63,-1.0,0,2025
175,1767097800,4399.84,4348.89,4348.89,-1.0,0,2025
176,1767311100,4348.35,4306.97,4389.81,1.0,1,2026
177,1767567600,4370.03,4308.64,4429.64,0.97,1,2026
178,1767624300,4436.61,4395.49,4480.94,1.08,1,2026
179,1767741300,4498.46,4441.61,4441.61,-1.0,0,2026
180,1767903300,4469.94,4406.64,4585.15,1.82,1,2026
181,1768222800,4606.69,4562.41,4562.41,-1.0,0,2026
182,1768777200,4654.38,4535.62,4854.13,1.68,1,2026
183,1769094900,4854.01,4772.96,4945.27,1.13,1,2026
184,1769382000,5021.66,4898.41,5157.6,1.1,1,2026
185,1769630400,5326.55,5235.11,5452.37,1.38,1,2026
186,1770099300,4871.52,4614.0,5047.66,0.68,1,2026
187,1770732900,5070.08,4985.63,4985.63,-1.0,0,2026
188,1770999300,5027.7,4932.69,4932.69,-1.0,0,2026
189,1771383600,4912.48,4852.97,4992.28,1.34,1,2026
190,1771568100,5022.28,4841.2,5225.63,1.12,1,2026
191,1772406000,5348.26,5219.71,5219.71,-1.0,0,2026
192,1772678700,5192.08,5128.3,5128.3,-1.0,0,2026
193,1772808300,5130.49,5061.06,5061.06,-1.0,0,2026
194,1773083700,5140.02,5059.89,5221.99,1.02,1,2026
195,1773721800,5039.47,4993.78,4993.78,-1.0,0,2026
196,1773976500,4733.61,4593.37,4593.37,-1.0,0,2026
197,1774275300,4486.58,4095.35,4501.45,0.04,1,2026
198,1774919700,4581.6,4481.37,4661.68,0.8,1,2026
199,1775028600,4730.81,4665.52,4773.77,0.66,1,2026
200,1775466000,4701.22,4598.6,4803.22,0.99,1,2026
201,1775741400,4775.75,4697.09,4697.09,-1.0,0,2026
202,1776117600,4748.5,4699.38,4838.64,1.83,1,2026
203,1776215700,4850.76,4643.03,4766.84,-0.4,0,2026
204,1777029300,4715.24,4656.62,4656.62,-1.0,0,2026
205,1777531500,4589.59,4517.33,4517.33,-1.0,0,2026
206,1777983300,4573.72,4533.2,4671.05,2.4,1,2026
207,1778116500,4704.23,4684.49,4732.66,1.44,1,2026
208,1778504400,4720.96,4647.24,4647.24,-1.0,0,2026
209,1779108300,4571.31,4479.7,4479.7,-1.0,0,2026
210,1779282000,4505.09,4460.66,4536.59,0.71,1,2026
211,1779663600,4574.27,4452.73,4567.34,-0.06,0,2026
